Method:,Column 1,,
Host Date-Time:,22/5/18 @ 14:5:22,,
Header Version:,1,,
System Temp (C):,33.81,,
Detector Temp (C):,30.46,,
Humidity (%):,48.69,,
Lamp PD:,3768,,
Shift Vector Coefficients:,-6.74686,0.0524561,-0.000101434
Pixel to Wavelength Coefficients:,1814.03,-0.914938,-0.00023931
Serial Number:,5510028,,
Scan Config Name:,Column 1,,
Scan Config Type:,Slew,,
Section 1,,,
Start wavelength (nm):,900,,
End wavelength (nm):,1700,,
Pattern Pixel Width (nm):,7.03,,
Exposure (ms):,0.635,,
Digital Resolution:,228,,
Num Repeats:,6,,
PGA Gain:,64,,
Total Measurement Time in sec:,2.712,,
Wavelength (nm),Absorbance (AU),Reference Signal (unitless),Sample Signal (unitless)
900.906296,0.536337733,71820,23700
904.828517,0.540668011,86358,28159
908.74643,0.557720363,97758,31575
913.963613,0.551432431,110243,35070
917.871475,0.555817664,120591,37989
921.775029,0.555219114,134100,42014
925.674276,0.559383929,150991,47062
929.569215,0.560794592,170011,52178
933.459847,0.565867245,189894,57846
937.346171,0.566732764,208331,63095
941.228187,0.571242809,224869,67261
945.105896,0.571616769,238808,70727
948.979297,0.576298773,251889,73204
952.848391,0.587795615,264137,75616
958.000482,0.597655952,279863,78138
961.859524,0.601397514,291735,79972
965.714259,0.605013669,303819,82392
969.564687,0.605121374,315794,85074
973.410806,0.606503129,327489,87814
977.252619,0.604957283,338786,90553
981.090123,0.601795852,348863,93423
984.92332,0.598583698,357867,95863
988.75221,0.595240474,365848,98499
992.576792,0.590073228,372415,100448
996.397066,0.588722885,377154,102219
1001.484064,0.581600606,381870,103814
1005.294288,0.576831818,384246,105205
1009.100203,0.572579145,385587,105665
1012.901811,0.567635357,386049,106557
1016.699112,0.564248562,386049,106895
1020.492105,0.557708263,386305,107906
1024.28079,0.551916003,385649,108421
1028.065168,0.548237145,384043,108735
1031.845238,0.542294323,382343,108482
1035.621001,0.539763153,380815,108537
1039.392456,0.536099672,379297,108728
1044.414362,0.531069815,376700,108024
1048.175766,0.528600514,375184,107275
1051.932862,0.526152551,374333,107532
1055.685651,0.521631658,373441,107880
1059.434132,0.518937767,372372,107466
1063.178306,0.517834723,372281,107952
1066.918172,0.516356111,372851,107622
1070.65373,0.511285067,373063,108063
1074.384981,0.512763321,373772,108177
1078.111924,0.510303378,374860,108361
1081.83456,0.511890829,376980,108660
1086.791374,0.511866093,379363,108796
1090.503958,0.510907114,381223,108634
1094.212235,0.51116854,384285,108862
1097.916205,0.511772752,387103,109747
1101.615867,0.516127467,390108,109699
1105.311221,0.514924526,392928,109303
1109.002268,0.516702414,396322,109875
1112.689007,0.518897653,399696,110391
1116.371438,0.520770788,401894,110123
1120.049562,0.523798168,404650,109782
1123.723379,0.530617774,407633,109088
1128.6151,0.541165829,411236,107583
1132.278865,0.553298831,413337,105346
1135.938323,0.571409464,415570,102005
1139.593473,0.591018975,417979,98575
1143.244316,0.613361359,420233,94156
1146.890851,0.634828746,422523,91312
1150.533078,0.649898887,424923,88483
1154.170998,0.668200493,427594,86316
1157.80461,0.676863551,429924,84887
1161.433915,0.682875097,432580,84201
1165.058912,0.688142002,435335,83270
1169.88554,0.691449702,439225,83363
1173.500487,0.694964051,442074,82777
1177.111125,0.69542861,445893,83035
1180.717456,0.697508335,450163,83691
1184.319479,0.701132298,454839,83362
1187.917195,0.703203559,460298,84147
1191.510603,0.705106497,466185,84888
1195.099703,0.700849831,472611,85937
1198.684496,0.698768437,478470,87308
1202.264982,0.697916865,484573,88813
1205.841159,0.697412848,491617,90304
1209.41303,0.691927254,498678,91645
1214.168822,0.689533412,507213,93908
1217.730641,0.685516834,514424,96063
1221.288153,0.680409908,521961,97918
1224.841357,0.674629211,529465,99712
1228.390253,0.670968056,536513,101301
1231.934842,0.666409612,544052,103343
1235.475123,0.66573441,552094,105513
1239.011097,0.659757733,559784,106781
1242.542763,0.655943453,567280,108907
1246.070121,0.653243721,574247,110618
1249.593172,0.649904132,582053,112167
1254.283873,0.649993718,592505,114610
1257.796872,0.64698559,598890,115942
1261.305565,0.646403253,605301,117425
1264.809949,0.64558357,612683,118635
1268.310026,0.646456122,619480,119309
1271.805796,0.646424413,625362,119678
1275.297258,0.647398055,631700,120886
1278.784412,0.649845898,638102,121316
1282.267259,0.652662158,642567,120616
1285.745798,0.656601191,646266,120906
1289.220029,0.657632411,649717,120591
1293.845637,0.665637732,654249,119420
1297.309818,0.672350168,656017,118022
1300.769691,0.681130826,657068,116936
1304.225256,0.689284146,659020,114867
1307.676514,0.699768841,660131,113044
1311.123464,0.711712897,660686,110559
1314.566107,0.722334623,660575,107490
1318.004442,0.734579742,660950,104752
1321.438469,0.750734925,660631,101944
1324.868189,0.766076684,659763,98200
1328.293601,0.786569536,658562,95014
1332.854117,0.807500541,657296,90092
1336.269478,0.828411043,655717,86848
1339.680531,0.844046891,653063,83574
1343.087277,0.864341199,650045,80495
1346.489716,0.880875468,647298,77355
1349.887847,0.897030592,644098,74445
1353.28167,0.913384199,639721,71529
1356.671186,0.931031764,635271,68726
1360.056394,0.945787668,631245,65874
1363.437294,0.963221729,626994,63400
1366.813887,0.988240063,622766,60134
1371.30931,1.02175558,618280,56001
1374.675852,1.05459869,615091,52362
1378.038086,1.09953856,612156,48253
1381.396013,1.15174139,608219,43548
1384.749632,1.21381056,605278,38524
1388.098944,1.27622938,602778,34193
1391.443948,1.34561992,600184,29357
1394.784644,1.41667151,597315,26486
1398.121033,1.47537529,594196,23594
1401.453114,1.52500069,590992,21565
1404.780888,1.56830609,587780,19933
1409.211218,1.61800349,583604,18778
1412.528941,1.62923038,581088,17583
1415.842356,1.66735375,578865,16915
1419.151463,1.6789248,576938,16796
1422.456263,1.68761611,575304,16662
1425.756755,1.69977486,574141,15559
1429.05294,1.69683504,573268,16154
1432.344817,1.72279203,573339,15824
1435.632386,1.70764852,572773,15824
1438.915648,1.71883678,573146,15732
1442.194603,1.70479548,572880,15543
1446.559841,1.71116245,573356,15713
1449.828744,1.71233141,573182,15555
1453.09334,1.72199523,572877,15249
1456.353628,1.73227787,572560,15806
1459.609608,1.73457742,571636,15325
1462.861281,1.72098923,571146,15835
1466.108647,1.70921195,569897,14959
1469.351704,1.72697186,568473,15467
1472.590454,1.71355832,567274,15602
1475.824897,1.7072053,565614,15727
1479.055032,1.69259715,563652,15087
1482.280859,1.69325268,562098,15330
1486.575262,1.68122637,559993,15198
1489.791038,1.68146479,558166,15441
1493.002507,1.6798861,555958,15554
1496.209668,1.66321468,553779,15541
1499.412522,1.65165842,551749,15892
1502.611068,1.63615322,549346,16374
1505.805306,1.62945724,546457,15936
1508.995237,1.62128079,543487,15775
1512.18086,1.61082876,540937,15969
1515.362176,1.59472942,538109,16531
1518.539184,1.5811044,534960,16635
1522.768494,1.5770371,530181,16479
1525.935451,1.56435502,527578,16909
1529.0981,1.56357408,523947,16685
1532.256442,1.53319418,520005,17393
1535.410477,1.52140617,515622,17459
1538.560203,1.51580667,511917,17527
1541.705622,1.49393034,507873,17617
1544.846734,1.48126125,503015,17756
1547.983538,1.46275973,498063,17937
1551.116034,1.45100439,492850,18295
1554.244223,1.44547224,487881,18206
1558.408441,1.43936777,480454,18419
1561.526578,1.42585468,474693,18773
1564.640408,1.41583812,469036,18696
1567.749931,1.40589988,462930,18704
1570.855146,1.38951707,456378,18817
1573.956053,1.38298273,449574,18731
1577.052653,1.37443948,442936,18827
1580.144945,1.36653483,436402,18846
1583.23293,1.35100913,428797,18832
1586.316607,1.33471692,421842,19169
1589.395976,1.3362205,414951,18908
1593.495102,1.32058704,404872,18902
1596.56442,1.30975521,396970,18832
1599.629431,1.30306149,389263,18934
1602.690134,1.29779339,381844,18008
1605.74653,1.29696023,374075,18227
1608.798618,1.28767526,365861,18587
1611.846398,1.2709347,357989,18121
1614.889871,1.2670933,349991,18255
1617.929036,1.24762714,341782,17821
1620.963894,1.25880778,333226,16303
1623.994444,1.24590874,325188,17216
1628.028477,1.24063241,314644,17294
1631.048976,1.23262513,306850,16947
1634.065168,1.23027325,298494,16749
1637.077052,1.22402608,290299,16278
1640.084628,1.21351016,282766,16278
1643.087897,1.2159493,274914,15450
1646.086858,1.21344888,266408,15241
1649.081511,1.21245182,257840,14424
1652.071857,1.20126367,249310,14719
1655.057896,1.199193,240052,14160
1658.039627,1.19292319,229524,13338
1662.008567,1.16416907,213697,12563
1664.980247,1.17435336,199606,11805
1667.947619,1.17620921,182727,11346
1670.910684,1.14976156,163588,10019
1673.869441,1.13472271,143454,9424
1676.82389,1.13543665,123450,8168
1679.774032,1.11040831,104722,7212
1682.719866,1.11940777,88128,5637
1685.661393,1.11224675,74460,4848
1688.598612,1.15743637,62664,4082
1691.531523,1.14039195,53383,3534
1695.435371,1.08267164,43061,3039
1698.358232,1.08877206,37090,2836
1701.276785,1.18743789,32398,2047
